 time            V_out           ID              V_load          I_load         
 0.00000000e+00 -7.36777306e-12 -2.77555756e-17 -5.75095527e-14  0.00000000e+00 
 1.00000000e-10 -8.48356886e-04 -5.27976654e-09 -5.22408189e-07 -5.27632213e-09 
 2.00000000e-10 -2.20173439e-03 -1.06083637e-08 -1.56675383e-06 -1.06001318e-08 
 4.00000000e-10 -5.49907902e-03 -2.12680080e-08 -4.68896749e-06 -2.12475770e-08 
 8.00000000e-10 -1.35463586e-02 -4.26019456e-08 -1.70127782e-05 -4.25416510e-08 
 1.60000000e-09 -2.99569233e-02 -8.53278178e-08 -6.48080452e-05 -8.51285988e-08 
 3.20000000e-09 -6.20663527e-02 -1.71006744e-07 -2.44422416e-04 -1.70312411e-07 
 6.40000000e-09 -1.23873154e-01 -3.43234457e-07 -8.81995886e-04 -3.40812838e-07 
 1.28000000e-08 -2.36943402e-01 -6.90852232e-07 -2.93584056e-03 -6.82797266e-07 
 2.28000000e-08 -3.83636130e-01 -1.24091844e-06 -7.32237788e-03 -1.22033204e-06 
 3.28000000e-08 -4.94546278e-01 -1.79681448e-06 -1.23784723e-02 -1.76097187e-06 
 4.28000000e-08 -5.74860508e-01 -2.35548316e-06 -1.76719084e-02 -2.30275341e-06 
 5.28000000e-08 -6.31916781e-01 -2.91379035e-06 -2.30430961e-02 -2.84298458e-06 
 6.28000000e-08 -6.72464849e-01 -3.46856057e-06 -2.84200708e-02 -3.37872704e-06 
 7.28000000e-08 -7.01533906e-01 -4.01661098e-06 -3.37590429e-02 -3.90697877e-06 
 8.28000000e-08 -7.22682581e-01 -4.55478258e-06 -3.90254561e-02 -4.42475376e-06 
 9.28000000e-08 -7.38383043e-01 -5.07996901e-06 -4.41880819e-02 -4.92912521e-06 
 1.02800000e-07 -7.50434461e-01 -5.58913771e-06 -4.92172793e-02 -5.41725037e-06 
 1.12800000e-07 -7.59773076e-01 -6.07937011e-06 -5.40846213e-02 -5.88640809e-06 
 1.22800000e-07 -7.67263361e-01 -6.54785688e-06 -5.87628813e-02 -6.33399419e-06 
 1.32800000e-07 -7.73384309e-01 -6.99193151e-06 -6.32261112e-02 -6.75755105e-06 
 1.42800000e-07 -7.78447960e-01 -7.40908160e-06 -6.74497948e-02 -7.15477625e-06 
 1.52800000e-07 -7.82668037e-01 -7.79696211e-06 -7.14109619e-02 -7.52353285e-06 
 1.62800000e-07 -7.86200030e-01 -8.15340642e-06 -7.50882885e-02 -7.86185750e-06 
 1.72800000e-07 -7.89153251e-01 -8.47643612e-06 -7.84621787e-02 -8.16796727e-06 
 1.82800000e-07 -7.91611856e-01 -8.76426886e-06 -8.15148329e-02 -8.44026474e-06 
 1.92800000e-07 -7.93635706e-01 -9.01532541e-06 -8.42303009e-02 -8.67734224e-06 
 2.02800000e-07 -7.95272992e-01 -9.22823511e-06 -8.65945241e-02 -8.87798490e-06 
 2.12800000e-07 -7.96556979e-01 -9.40184078e-06 -8.85953679e-02 -9.04117306e-06 
 2.22800000e-07 -7.97515131e-01 -9.53520224e-06 -9.02226457e-02 -9.16608386e-06 
 2.32800000e-07 -7.98164276e-01 -9.62759950e-06 -9.14681365e-02 -9.25209252e-06 
 2.42800000e-07 -7.98518062e-01 -9.67853475e-06 -9.23255971e-02 -9.29877296e-06 
 2.52800000e-07 -7.98581390e-01 -9.68773400e-06 -9.27907699e-02 -9.30589829e-06 
 2.62800000e-07 -7.98356944e-01 -9.65514776e-06 -9.28613868e-02 -9.27344077e-06 
 2.72800000e-07 -7.97839114e-01 -9.58095133e-06 -9.25371705e-02 -9.20157172e-06 
 2.82800000e-07 -7.97019906e-01 -9.46554409e-06 -9.18198327e-02 -9.09066103e-06 
 2.92800000e-07 -7.95882260e-01 -9.30954855e-06 -9.07130694e-02 -8.94127652e-06 
 3.02800000e-07 -7.94405348e-01 -9.11380823e-06 -8.92225544e-02 -8.75418285e-06 
 3.12800000e-07 -7.92556901e-01 -8.87938528e-06 -8.73559284e-02 -8.53034023e-06 
 3.22800000e-07 -7.90297532e-01 -8.60755688e-06 -8.51227854e-02 -8.27090254e-06 
 3.32800000e-07 -7.87571127e-01 -8.29981116e-06 -8.25346538e-02 -7.97721507e-06 
 3.42800000e-07 -7.84307012e-01 -7.95784179e-06 -7.96049726e-02 -7.65081134e-06 
 3.52800000e-07 -7.80405995e-01 -7.58354187e-06 -7.63490598e-02 -7.29340934e-06 
 3.62800000e-07 -7.75736857e-01 -7.17899624e-06 -7.27840728e-02 -6.90690653e-06 
 3.72800000e-07 -7.70111317e-01 -6.74647273e-06 -6.89289586e-02 -6.49337378e-06 
 3.82800000e-07 -7.63263921e-01 -6.28841154e-06 -6.48043912e-02 -6.05504770e-06 
 3.92800000e-07 -7.54796053e-01 -5.80741317e-06 -6.04326941e-02 -5.59432140e-06 
 4.02800000e-07 -7.44107998e-01 -5.30622392e-06 -5.58377463e-02 -5.11373310e-06 
 4.12800000e-07 -7.30267543e-01 -4.78771963e-06 -5.10448682e-02 -4.61595272e-06 
 4.22800000e-07 -7.11859439e-01 -4.25488642e-06 -4.60806842e-02 -4.10376573e-06 
 4.32800000e-07 -6.86612919e-01 -3.71080304e-06 -4.09729731e-02 -3.58005779e-06 
 4.42800000e-07 -6.51780811e-01 -3.15860033e-06 -3.57504467e-02 -3.04777890e-06 
 4.52800000e-07 -6.02991369e-01 -2.60145887e-06 -3.04425478e-02 -2.50994078e-06 
 4.62800000e-07 -5.34338366e-01 -2.04256138e-06 -2.50792306e-02 -1.96957361e-06 
 4.72800000e-07 -4.38624586e-01 -1.48506451e-06 -1.96906542e-02 -1.42969958e-06 
 4.82800000e-07 -3.09317555e-01 -9.32063760e-07 -1.43068820e-02 -8.93299612e-07 
 4.92800000e-07 -1.43629905e-01 -3.86557101e-07 -8.95755420e-03 -3.63278444e-07 
 5.02800000e-07  5.60762478e-02  1.48592381e-07 -3.67154083e-03  1.57571614e-07 
 5.12800000e-07  2.84001937e-01  6.70693063e-07  1.52341436e-03  6.66606777e-07 
 5.22800000e-07  5.33832732e-01  1.17726009e-06  6.60105077e-03  1.16136702e-06 
 5.32800000e-07  7.98444790e-01  1.66604683e-06  1.15369343e-02  1.63960819e-06 
 5.42800000e-07  1.06856915e+00  2.13507220e-06  1.63087734e-02  2.09933041e-06 
 5.52800000e-07  1.33143171e+00  2.58264174e-06  2.08966955e-02  2.53880091e-06 
 5.62800000e-07  1.57427418e+00  3.00736160e-06  2.52834688e-02  2.95657017e-06 
 5.72800000e-07  1.78991820e+00  3.40813963e-06  2.94546442e-02  3.35147621e-06 
 5.82800000e-07  1.97854288e+00  3.78419960e-06  3.33986681e-02  3.72265980e-06 
 5.92800000e-07  2.14341929e+00  4.13504678e-06  3.71068747e-02  4.06953579e-06 
 6.02800000e-07  2.28858340e+00  4.46047291e-06  4.05734070e-02  4.39179883e-06 
 6.12800000e-07  2.41710758e+00  4.76048903e-06  4.37950067e-02  4.68936247e-06 
 6.22800000e-07  2.53174848e+00  5.03534751e-06  4.67708098e-02  4.96237979e-06 
 6.32800000e-07  2.63446753e+00  5.28547245e-06  4.95021319e-02  5.21117879e-06 
 6.42800000e-07  2.72657815e+00  5.51143002e-06  5.19920870e-02  5.43623411e-06 
 6.52800000e-07  2.80908583e+00  5.71388974e-06  5.42452423e-02  5.63812988e-06 
 6.62800000e-07  2.88261928e+00  5.89358704e-06  5.62672581e-02  5.81752333e-06 
 6.72800000e-07  2.94767076e+00  6.05128750e-06  5.80645298e-02  5.97510980e-06 
 6.82800000e-07  3.00450276e+00  6.18775451e-06  5.96438445e-02  6.11159058e-06 
 6.92800000e-07  3.05333660e+00  6.30372015e-06  6.10120633e-02  6.22764395e-06 
 7.02800000e-07  3.09424802e+00  6.39986038e-06  6.21758344e-02  6.32390005e-06 
 7.12800000e-07  3.12732490e+00  6.47677388e-06  6.31413434e-02  6.40091954e-06 
 7.22800000e-07  3.15255954e+00  6.53496519e-06  6.39141002e-02  6.45917617e-06 
 7.32800000e-07  3.16998629e+00  6.57483127e-06  6.44987641e-02  6.49904305e-06 
 7.42800000e-07  3.17957301e+00  6.59665181e-06  6.48990065e-02  6.52078250e-06 
 7.52800000e-07  3.18134415e+00  6.60058246e-06  6.51174074e-02  6.52453906e-06 
 7.62800000e-07  3.17527151e+00  6.58665150e-06  6.51553856e-02  6.51033589e-06 
 7.72800000e-07  3.16138551e+00  6.55475897e-06  6.50131613e-02  6.47807393e-06 
 7.82800000e-07  3.13966446e+00  6.50467915e-06  6.46897481e-02  6.42753438e-06 
 7.92800000e-07  3.11013543e+00  6.43606558e-06  6.41829773e-02  6.35838401e-06 
 8.02800000e-07  3.07276042e+00  6.34845966e-06  6.34895524e-02  6.27018397e-06 
 8.12800000e-07  3.02752719e+00  6.24130217e-06  6.26051369e-02  6.16240187e-06 
 8.22800000e-07  2.97432961e+00  6.11394883e-06  6.15244774e-02  6.03442767e-06 
 8.32800000e-07  2.91304699e+00  5.96568933e-06  6.02415625e-02  5.88559332e-06 
 8.42800000e-07  2.84341323e+00  5.79577076e-06  5.87498201e-02  5.71519647e-06 
 8.52800000e-07  2.76507979e+00  5.60342461e-06  5.70423545e-02  5.52252787e-06 
 8.62800000e-07  2.67746259e+00  5.38789798e-06  5.51122198e-02  5.30690263e-06 
 8.72800000e-07  2.57977660e+00  5.14848775e-06  5.29527295e-02  5.06769425e-06 
 8.82800000e-07  2.47083992e+00  4.88457758e-06  5.05577939e-02  4.80437098e-06 
 8.92800000e-07  2.34906075e+00  4.59567606e-06  4.79222785e-02  4.51653317e-06 
 9.02800000e-07  2.21218357e+00  4.28145521e-06  4.50423709e-02  4.20395025e-06 
 9.12800000e-07  2.05727154e+00  3.94178713e-06  4.19159432e-02  3.86659563e-06 
 9.22800000e-07  1.88061386e+00  3.57677781e-06  3.85428936e-02  3.50467814e-06 
 9.32800000e-07  1.67843663e+00  3.18679569e-06  3.49254515e-02  3.11866795e-06 
 9.42800000e-07  1.44867459e+00  2.77249418e-06  3.10684307e-02  2.70931610e-06 
 9.52800000e-07  1.19455286e+00  2.33482630e-06  2.69794173e-02  2.27766602e-06 
 9.62800000e-07  9.26379380e-01  1.87505139e-06  2.26688826e-02  1.82505703e-06 
 9.72800000e-07  6.57770936e-01  1.39473285e-06  1.81502144e-02  1.35311904e-06 
 9.82800000e-07  3.99772592e-01  8.95727894e-07  1.34396665e-02  8.63759465e-07 
 9.92800000e-07  1.60217359e-01  3.80169332e-07  8.55622896e-03  3.59142576e-07 
 1.00280000e-06 -5.41140834e-02 -1.49559025e-07  3.52142810e-03 -1.58337043e-07 
 1.01280000e-06 -2.36890076e-01 -6.90852237e-07 -1.64093417e-03 -6.86086016e-07 
 1.02280000e-06 -3.83633375e-01 -1.24091844e-06 -6.90508745e-03 -1.22134680e-06 
 1.03280000e-06 -4.94548743e-01 -1.79681448e-06 -1.22436316e-02 -1.76123394e-06 
 1.04280000e-06 -5.74858740e-01 -2.35548316e-06 -1.76278936e-02 -2.30277097e-06 
 1.05280000e-06 -6.31918076e-01 -2.91379035e-06 -2.30282900e-02 -2.84292668e-06 
 1.06280000e-06 -6.72463880e-01 -3.46856057e-06 -2.84146839e-02 -3.37864950e-06 
 1.07280000e-06 -7.01534647e-01 -4.01661098e-06 -3.37567254e-02 -3.90689972e-06 
 1.08280000e-06 -7.22681999e-01 -4.55478258e-06 -3.90241703e-02 -4.42467883e-06 
 1.09280000e-06 -7.38383516e-01 -5.07996901e-06 -4.41871726e-02 -4.92905592e-06 
 1.10280000e-06 -7.50434144e-01 -5.58913771e-06 -4.92165335e-02 -5.41718686e-06 
 1.11280000e-06 -7.59773374e-01 -6.07937011e-06 -5.40839677e-02 -5.88635011e-06 
 1.12280000e-06 -7.67263084e-01 -6.54785688e-06 -5.87622941e-02 -6.33394135e-06 
 1.13280000e-06 -7.73384563e-01 -6.99193151e-06 -6.32255791e-02 -6.75750296e-06 
 1.14280000e-06 -7.78447723e-01 -7.40908160e-06 -6.74493112e-02 -7.15473251e-06 
 1.15280000e-06 -7.82668260e-01 -7.79696211e-06 -7.14105224e-02 -7.52349309e-06 
 1.16280000e-06 -7.86199820e-01 -8.15340642e-06 -7.50878891e-02 -7.86182139e-06 
 1.17280000e-06 -7.89153452e-01 -8.47643612e-06 -7.84618160e-02 -8.16793449e-06 
 1.18280000e-06 -7.91611663e-01 -8.76426886e-06 -8.15145036e-02 -8.44023500e-06 
 1.19280000e-06 -7.93635892e-01 -9.01532541e-06 -8.42300021e-02 -8.67731528e-06 
 1.20280000e-06 -7.95272812e-01 -9.22823511e-06 -8.65942532e-02 -8.87796046e-06 
 1.21280000e-06 -7.96557156e-01 -9.40184078e-06 -8.85951223e-02 -9.04115091e-06 
 1.22280000e-06 -7.97514958e-01 -9.53520224e-06 -9.02224231e-02 -9.16606380e-06 
 1.23280000e-06 -7.98164446e-01 -9.62759950e-06 -9.14679349e-02 -9.25207436e-06 
 1.24280000e-06 -7.98517893e-01 -9.67853475e-06 -9.23254146e-02 -9.29875653e-06 
 1.25280000e-06 -7.98581558e-01 -9.68773400e-06 -9.27906047e-02 -9.30588342e-06 
 1.26280000e-06 -7.98356775e-01 -9.65514776e-06 -9.28612373e-02 -9.27342731e-06 
 1.27280000e-06 -7.97839283e-01 -9.58095133e-06 -9.25370353e-02 -9.20155955e-06 
 1.28280000e-06 -7.97019734e-01 -9.46554409e-06 -9.18197104e-02 -9.09065004e-06 
 1.29280000e-06 -7.95882434e-01 -9.30954855e-06 -9.07129589e-02 -8.94126659e-06 
 1.30280000e-06 -7.94405171e-01 -9.11380823e-06 -8.92224545e-02 -8.75417388e-06 
 1.31280000e-06 -7.92557083e-01 -8.87938528e-06 -8.73558382e-02 -8.53033213e-06 
 1.32280000e-06 -7.90297344e-01 -8.60755688e-06 -8.51227040e-02 -8.27089524e-06 
 1.33280000e-06 -7.87571323e-01 -8.29981116e-06 -8.25345804e-02 -7.97720848e-06 
 1.34280000e-06 -7.84306806e-01 -7.95784179e-06 -7.96049064e-02 -7.65080540e-06 
 1.35280000e-06 -7.80406212e-01 -7.58354187e-06 -7.63490001e-02 -7.29340399e-06 
 1.36280000e-06 -7.75736624e-01 -7.17899624e-06 -7.27840190e-02 -6.90690171e-06 
 1.37280000e-06 -7.70111569e-01 -6.74647273e-06 -6.89289102e-02 -6.49336945e-06 
 1.38280000e-06 -7.63263645e-01 -6.28841154e-06 -6.48043476e-02 -6.05504381e-06 
 1.39280000e-06 -7.54796362e-01 -5.80741317e-06 -6.04326549e-02 -5.59431790e-06 
 1.40280000e-06 -7.44107645e-01 -5.30622392e-06 -5.58377111e-02 -5.11372996e-06 
 1.41280000e-06 -7.30267956e-01 -4.78771963e-06 -5.10448366e-02 -4.61594990e-06 
 1.42280000e-06 -7.11858941e-01 -4.25488642e-06 -4.60806559e-02 -4.10376321e-06 
 1.43280000e-06 -6.86613642e-01 -3.71080304e-06 -4.09729478e-02 -3.58005553e-06 
 1.44280000e-06 -6.51779881e-01 -3.15860033e-06 -3.57504240e-02 -3.04777688e-06 
 1.45280000e-06 -6.02992583e-01 -2.60145887e-06 -3.04425275e-02 -2.50993898e-06 
 1.46280000e-06 -5.34336776e-01 -2.04256138e-06 -2.50792125e-02 -1.96957201e-06 
 1.47280000e-06 -4.38626632e-01 -1.48506451e-06 -1.96906380e-02 -1.42969815e-06 
 1.48280000e-06 -3.09315031e-01 -9.32063760e-07 -1.43068677e-02 -8.93298343e-07 
 1.49280000e-06 -1.43632832e-01 -3.86557101e-07 -8.95754142e-03 -3.63277318e-07 
 1.50280000e-06  5.60794462e-02  1.48592381e-07 -3.67152949e-03  1.57572612e-07 
 1.51280000e-06  2.83998684e-01  6.70693063e-07  1.52342441e-03  6.66607660e-07 
 1.52280000e-06  5.33836065e-01  1.17726009e-06  6.60105966e-03  1.16136780e-06 
 1.53280000e-06  7.98441502e-01  1.66604683e-06  1.15369421e-02  1.63960887e-06 
 1.54280000e-06  1.06857225e+00  2.13507220e-06  1.63087803e-02  2.09933102e-06 
 1.55280000e-06  1.33142898e+00  2.58264174e-06  2.08967016e-02  2.53880144e-06 
 1.56280000e-06  1.57427644e+00  3.00736160e-06  2.52834741e-02  2.95657064e-06 
 1.57280000e-06  1.78991617e+00  3.40813963e-06  2.94546489e-02  3.35147662e-06 
 1.58280000e-06  1.97854460e+00  3.78419960e-06  3.33986722e-02  3.72266016e-06 
 1.59280000e-06  2.14341781e+00  4.13504678e-06  3.71068783e-02  4.06953610e-06 
 1.60280000e-06  2.28858460e+00  4.46047291e-06  4.05734101e-02  4.39179911e-06 
 1.61280000e-06  2.41710648e+00  4.76048903e-06  4.37950095e-02  4.68936272e-06 
 1.62280000e-06  2.53174949e+00  5.03534751e-06  4.67708122e-02  4.96238000e-06 
 1.63280000e-06  2.63446660e+00  5.28547245e-06  4.95021340e-02  5.21117898e-06 
 1.64280000e-06  2.72657903e+00  5.51143002e-06  5.19920888e-02  5.43623427e-06 
 1.65280000e-06  2.80908501e+00  5.71388974e-06  5.42452439e-02  5.63813002e-06 
 1.66280000e-06  2.88262006e+00  5.89358704e-06  5.62672596e-02  5.81752346e-06 
 1.67280000e-06  2.94767002e+00  6.05128750e-06  5.80645311e-02  5.97510991e-06 
 1.68280000e-06  3.00450347e+00  6.18775451e-06  5.96438457e-02  6.11159068e-06 
 1.69280000e-06  3.05333592e+00  6.30372015e-06  6.10120643e-02  6.22764403e-06 
 1.70280000e-06  3.09424867e+00  6.39986038e-06  6.21758353e-02  6.32390013e-06 
 1.71280000e-06  3.12732427e+00  6.47677388e-06  6.31413442e-02  6.40091960e-06 
 1.72280000e-06  3.15256016e+00  6.53496519e-06  6.39141009e-02  6.45917623e-06 
 1.73280000e-06  3.16998569e+00  6.57483127e-06  6.44987647e-02  6.49904310e-06 
 1.74280000e-06  3.17957360e+00  6.59665181e-06  6.48990071e-02  6.52078255e-06 
 1.75280000e-06  3.18134357e+00  6.60058246e-06  6.51174079e-02  6.52453911e-06 
 1.76280000e-06  3.17527208e+00  6.58665150e-06  6.51553861e-02  6.51033593e-06 
 1.77280000e-06  3.16138496e+00  6.55475897e-06  6.50131617e-02  6.47807397e-06 
 1.78280000e-06  3.13966501e+00  6.50467915e-06  6.46897485e-02  6.42753441e-06 
 1.79280000e-06  3.11013489e+00  6.43606558e-06  6.41829777e-02  6.35838404e-06 
 1.80280000e-06  3.07276096e+00  6.34845966e-06  6.34895527e-02  6.27018400e-06 
 1.81280000e-06  3.02752666e+00  6.24130217e-06  6.26051372e-02  6.16240189e-06 
 1.82280000e-06  2.97433015e+00  6.11394883e-06  6.15244777e-02  6.03442770e-06 
 1.83280000e-06  2.91304645e+00  5.96568933e-06  6.02415627e-02  5.88559335e-06 
 1.84280000e-06  2.84341377e+00  5.79577076e-06  5.87498203e-02  5.71519649e-06 
 1.85280000e-06  2.76507924e+00  5.60342461e-06  5.70423547e-02  5.52252789e-06 
 1.86280000e-06  2.67746315e+00  5.38789798e-06  5.51122200e-02  5.30690265e-06 
 1.87280000e-06  2.57977603e+00  5.14848775e-06  5.29527297e-02  5.06769426e-06 
 1.88280000e-06  2.47084050e+00  4.88457758e-06  5.05577941e-02  4.80437100e-06 
 1.89280000e-06  2.34906014e+00  4.59567606e-06  4.79222786e-02  4.51653318e-06 
 1.90280000e-06  2.21218420e+00  4.28145521e-06  4.50423710e-02  4.20395026e-06 
 1.91280000e-06  2.05727087e+00  3.94178713e-06  4.19159433e-02  3.86659564e-06 
 1.92280000e-06  1.88061457e+00  3.57677781e-06  3.85428938e-02  3.50467815e-06 
 1.93280000e-06  1.67843585e+00  3.18679569e-06  3.49254516e-02  3.11866797e-06 
 1.94280000e-06  1.44867541e+00  2.77249418e-06  3.10684308e-02  2.70931611e-06 
 1.95280000e-06  1.19455200e+00  2.33482630e-06  2.69794174e-02  2.27766603e-06 
 1.96280000e-06  9.26380212e-01  1.87505139e-06  2.26688827e-02  1.82505703e-06 
 1.97280000e-06  6.57770173e-01  1.39473285e-06  1.81502145e-02  1.35311905e-06 
 1.98280000e-06  3.99773262e-01  8.95727894e-07  1.34396666e-02  8.63759473e-07 
 1.99280000e-06  1.60216793e-01  3.80169332e-07  8.55622904e-03  3.59142584e-07 
 2.00280000e-06 -5.41135983e-02 -1.49559025e-07  3.52142817e-03 -1.58337036e-07 
 2.01280000e-06 -2.36890464e-01 -6.90852237e-07 -1.64093410e-03 -6.86086010e-07 
 2.02280000e-06 -3.83633080e-01 -1.24091844e-06 -6.90508739e-03 -1.22134680e-06 
 2.03280000e-06 -4.94548960e-01 -1.79681448e-06 -1.22436316e-02 -1.76123393e-06 
 2.04280000e-06 -5.74858582e-01 -2.35548316e-06 -1.76278935e-02 -2.30277096e-06 
 2.05280000e-06 -6.31918191e-01 -2.91379035e-06 -2.30282900e-02 -2.84292668e-06 
 2.06280000e-06 -6.72463794e-01 -3.46856057e-06 -2.84146839e-02 -3.37864949e-06 
 2.07280000e-06 -7.01534713e-01 -4.01661098e-06 -3.37567253e-02 -3.90689972e-06 
 2.08280000e-06 -7.22681947e-01 -4.55478258e-06 -3.90241703e-02 -4.42467883e-06 
 2.09280000e-06 -7.38383558e-01 -5.07996901e-06 -4.41871726e-02 -4.92905591e-06 
 2.10280000e-06 -7.50434115e-01 -5.58913771e-06 -4.92165334e-02 -5.41718686e-06 
 2.11280000e-06 -7.59773400e-01 -6.07937011e-06 -5.40839677e-02 -5.88635010e-06 
 2.12280000e-06 -7.67263060e-01 -6.54785688e-06 -5.87622941e-02 -6.33394135e-06 
 2.13280000e-06 -7.73384586e-01 -6.99193151e-06 -6.32255790e-02 -6.75750295e-06 
 2.14280000e-06 -7.78447702e-01 -7.40908160e-06 -6.74493112e-02 -7.15473251e-06 
 2.15280000e-06 -7.82668280e-01 -7.79696211e-06 -7.14105224e-02 -7.52349309e-06 
 2.16280000e-06 -7.86199801e-01 -8.15340642e-06 -7.50878891e-02 -7.86182139e-06 
 2.17280000e-06 -7.89153470e-01 -8.47643612e-06 -7.84618160e-02 -8.16793449e-06 
 2.18280000e-06 -7.91611646e-01 -8.76426886e-06 -8.15145036e-02 -8.44023500e-06 
 2.19280000e-06 -7.93635909e-01 -9.01532541e-06 -8.42300021e-02 -8.67731527e-06 
 2.20280000e-06 -7.95272796e-01 -9.22823511e-06 -8.65942531e-02 -8.87796046e-06 
 2.21280000e-06 -7.96557171e-01 -9.40184078e-06 -8.85951223e-02 -9.04115091e-06 
 2.22280000e-06 -7.97514942e-01 -9.53520224e-06 -9.02224231e-02 -9.16606379e-06 
 2.23280000e-06 -7.98164462e-01 -9.62759950e-06 -9.14679349e-02 -9.25207435e-06 
 2.24280000e-06 -7.98517878e-01 -9.67853475e-06 -9.23254146e-02 -9.29875652e-06 
 2.25280000e-06 -7.98581573e-01 -9.68773400e-06 -9.27906047e-02 -9.30588342e-06 
 2.26280000e-06 -7.98356760e-01 -9.65514776e-06 -9.28612373e-02 -9.27342731e-06 
 2.27280000e-06 -7.97839298e-01 -9.58095133e-06 -9.25370353e-02 -9.20155955e-06 
 2.28280000e-06 -7.97019719e-01 -9.46554409e-06 -9.18197104e-02 -9.09065004e-06 
 2.29280000e-06 -7.95882450e-01 -9.30954855e-06 -9.07129589e-02 -8.94126659e-06 
 2.30280000e-06 -7.94405155e-01 -9.11380823e-06 -8.92224545e-02 -8.75417388e-06 
 2.31280000e-06 -7.92557100e-01 -8.87938528e-06 -8.73558382e-02 -8.53033213e-06 
 2.32280000e-06 -7.90297327e-01 -8.60755688e-06 -8.51227040e-02 -8.27089524e-06 
 2.33280000e-06 -7.87571340e-01 -8.29981116e-06 -8.25345804e-02 -7.97720848e-06 
 2.34280000e-06 -7.84306788e-01 -7.95784179e-06 -7.96049064e-02 -7.65080540e-06 
 2.35280000e-06 -7.80406232e-01 -7.58354187e-06 -7.63490001e-02 -7.29340399e-06 
 2.36280000e-06 -7.75736603e-01 -7.17899624e-06 -7.27840190e-02 -6.90690171e-06 
 2.37280000e-06 -7.70111591e-01 -6.74647273e-06 -6.89289102e-02 -6.49336945e-06 
